     time     force
  0.00000E+00  2.13197E-01
  2.00401E-03  2.33939E-01
  4.00802E-03  2.54569E-01
  6.01202E-03  2.75090E-01
  8.01603E-03  2.95502E-01
  1.00200E-02  3.15804E-01
  1.20240E-02  3.35998E-01
  1.40281E-02  3.56084E-01
  1.60321E-02  3.76063E-01
  1.80361E-02  3.95936E-01
  2.00401E-02  4.15702E-01
  2.20441E-02  4.35363E-01
  2.40481E-02  4.54919E-01
  2.60521E-02  4.74371E-01
  2.80561E-02  4.93719E-01
  3.00601E-02  5.12963E-01
  3.20641E-02  5.32105E-01
  3.40681E-02  5.51145E-01
  3.60721E-02  5.70083E-01
  3.80762E-02  5.88920E-01
  4.00802E-02  6.07657E-01
  4.20842E-02  6.26293E-01
  4.40882E-02  6.44830E-01
  4.60922E-02  6.63269E-01
  4.80962E-02  6.81608E-01
  5.01002E-02  6.99850E-01
  5.21042E-02  7.17995E-01
  5.41082E-02  7.36043E-01
  5.61122E-02  7.53994E-01
  5.81162E-02  7.71850E-01
  6.01202E-02  7.89610E-01
  6.21242E-02  8.07276E-01
  6.41283E-02  8.24847E-01
  6.61323E-02  8.42325E-01
  6.81363E-02  8.59709E-01
  7.01403E-02  8.77001E-01
  7.21443E-02  8.94200E-01
  7.41483E-02  9.11307E-01
  7.61523E-02  9.28323E-01
  7.81563E-02  9.45249E-01
  8.01603E-02  9.62084E-01
  8.21643E-02  9.78829E-01
  8.41683E-02  9.95485E-01
  8.61723E-02  1.01205E+00
  8.81764E-02  1.02853E+00
  9.01804E-02  1.04492E+00
  9.21844E-02  1.06122E+00
  9.41884E-02  1.07744E+00
  9.61924E-02  1.09357E+00
  9.81964E-02  1.10961E+00
  1.00200E-01  1.12557E+00
  1.02204E-01  1.14144E+00
  1.04208E-01  1.15723E+00
  1.06212E-01  1.17294E+00
  1.08216E-01  1.18856E+00
  1.10220E-01  1.20409E+00
  1.12224E-01  1.21955E+00
  1.14228E-01  1.23492E+00
  1.16232E-01  1.25021E+00
  1.18236E-01  1.26541E+00
  1.20240E-01  1.28054E+00
  1.22244E-01  1.29559E+00
  1.24248E-01  1.31055E+00
  1.26253E-01  1.32544E+00
  1.28257E-01  1.34024E+00
  1.30261E-01  1.35497E+00
  1.32265E-01  1.36962E+00
  1.34269E-01  1.38419E+00
  1.36273E-01  1.39868E+00
  1.38277E-01  1.41310E+00
  1.40281E-01  1.42744E+00
  1.42285E-01  1.44170E+00
  1.44289E-01  1.45588E+00
  1.46293E-01  1.46999E+00
  1.48297E-01  1.48403E+00
  1.50301E-01  1.49799E+00
  1.52305E-01  1.51188E+00
  1.54309E-01  1.52569E+00
  1.56313E-01  1.53942E+00
  1.58317E-01  1.55309E+00
  1.60321E-01  1.56668E+00
  1.62325E-01  1.58020E+00
  1.64329E-01  1.59365E+00
  1.66333E-01  1.60702E+00
  1.68337E-01  1.62032E+00
  1.70341E-01  1.63356E+00
  1.72345E-01  1.64672E+00
  1.74349E-01  1.65981E+00
  1.76353E-01  1.67283E+00
  1.78357E-01  1.68578E+00
  1.80361E-01  1.69867E+00
  1.82365E-01  1.71148E+00
  1.84369E-01  1.72423E+00
  1.86373E-01  1.73691E+00
  1.88377E-01  1.74952E+00
  1.90381E-01  1.76206E+00
  1.92385E-01  1.77454E+00
  1.94389E-01  1.78695E+00
  1.96393E-01  1.79929E+00
  1.98397E-01  1.81157E+00
  2.00401E-01  1.82378E+00
  2.02405E-01  1.83593E+00
  2.04409E-01  1.84801E+00
  2.06413E-01  1.86002E+00
  2.08417E-01  1.87198E+00
  2.10421E-01  1.88387E+00
  2.12425E-01  1.89569E+00
  2.14429E-01  1.90746E+00
  2.16433E-01  1.91916E+00
  2.18437E-01  1.93080E+00
  2.20441E-01  1.94237E+00
  2.22445E-01  1.95389E+00
  2.24449E-01  1.96534E+00
  2.26453E-01  1.97673E+00
  2.28457E-01  1.98806E+00
  2.30461E-01  1.99933E+00
  2.32465E-01  2.01054E+00
  2.34469E-01  2.02169E+00
  2.36473E-01  2.03278E+00
  2.38477E-01  2.04381E+00
  2.40481E-01  2.05479E+00
  2.42485E-01  2.06570E+00
  2.44489E-01  2.07656E+00
  2.46493E-01  2.08735E+00
  2.48497E-01  2.09809E+00
  2.50501E-01  2.10878E+00
  2.52505E-01  2.11940E+00
  2.54509E-01  2.12997E+00
  2.56513E-01  2.14048E+00
  2.58517E-01  2.15094E+00
  2.60521E-01  2.16134E+00
  2.62525E-01  2.17169E+00
  2.64529E-01  2.18198E+00
  2.66533E-01  2.19221E+00
  2.68537E-01  2.20239E+00
  2.70541E-01  2.21252E+00
  2.72545E-01  2.22259E+00
  2.74549E-01  2.23261E+00
  2.76553E-01  2.24258E+00
  2.78557E-01  2.25249E+00
  2.80561E-01  2.26235E+00
  2.82565E-01  2.27215E+00
  2.84569E-01  2.28191E+00
  2.86573E-01  2.29161E+00
  2.88577E-01  2.30126E+00
  2.90581E-01  2.31086E+00
  2.92585E-01  2.32041E+00
  2.94589E-01  2.32990E+00
  2.96593E-01  2.33935E+00
  2.98597E-01  2.34875E+00
  3.00601E-01  2.35809E+00
  3.02605E-01  2.36739E+00
  3.04609E-01  2.37663E+00
  3.06613E-01  2.38583E+00
  3.08617E-01  2.39498E+00
  3.10621E-01  2.40408E+00
  3.12625E-01  2.41313E+00
  3.14629E-01  2.42213E+00
  3.16633E-01  2.43108E+00
  3.18637E-01  2.43999E+00
  3.20641E-01  2.44885E+00
  3.22645E-01  2.45766E+00
  3.24649E-01  2.46642E+00
  3.26653E-01  2.47514E+00
  3.28657E-01  2.48381E+00
  3.30661E-01  2.49243E+00
  3.32665E-01  2.50101E+00
  3.34669E-01  2.50955E+00
  3.36673E-01  2.51803E+00
  3.38677E-01  2.52647E+00
  3.40681E-01  2.53487E+00
  3.42685E-01  2.54322E+00
  3.44689E-01  2.55153E+00
  3.46693E-01  2.55979E+00
  3.48697E-01  2.56801E+00
  3.50701E-01  2.57619E+00
  3.52705E-01  2.58432E+00
  3.54709E-01  2.59241E+00
  3.56713E-01  2.60045E+00
  3.58717E-01  2.60846E+00
  3.60721E-01  2.61642E+00
  3.62725E-01  2.62433E+00
  3.64729E-01  2.63221E+00
  3.66733E-01  2.64004E+00
  3.68737E-01  2.64783E+00
  3.70741E-01  2.65558E+00
  3.72745E-01  2.66329E+00
  3.74750E-01  2.67096E+00
  3.76754E-01  2.67858E+00
  3.78758E-01  2.68617E+00
  3.80762E-01  2.69371E+00
  3.82766E-01  2.70122E+00
  3.84770E-01  2.70868E+00
  3.86774E-01  2.71611E+00
  3.88778E-01  2.72349E+00
  3.90782E-01  2.73084E+00
  3.92786E-01  2.73814E+00
  3.94790E-01  2.74541E+00
  3.96794E-01  2.75264E+00
  3.98798E-01  2.75983E+00
  4.00802E-01  2.76698E+00
  4.02806E-01  2.77409E+00
  4.04810E-01  2.78117E+00
  4.06814E-01  2.78821E+00
  4.08818E-01  2.79521E+00
  4.10822E-01  2.80217E+00
  4.12826E-01  2.80910E+00
  4.14830E-01  2.81599E+00
  4.16834E-01  2.82284E+00
  4.18838E-01  2.82965E+00
  4.20842E-01  2.83643E+00
  4.22846E-01  2.84317E+00
  4.24850E-01  2.84988E+00
  4.26854E-01  2.85655E+00
  4.28858E-01  2.86319E+00
  4.30862E-01  2.86979E+00
  4.32866E-01  2.87635E+00
  4.34870E-01  2.88288E+00
  4.36874E-01  2.88938E+00
  4.38878E-01  2.89584E+00
  4.40882E-01  2.90226E+00
  4.42886E-01  2.90866E+00
  4.44890E-01  2.91501E+00
  4.46894E-01  2.92134E+00
  4.48898E-01  2.92763E+00
  4.50902E-01  2.93388E+00
  4.52906E-01  2.94011E+00
  4.54910E-01  2.94630E+00
  4.56914E-01  2.95245E+00
  4.58918E-01  2.95858E+00
  4.60922E-01  2.96467E+00
  4.62926E-01  2.97073E+00
  4.64930E-01  2.97675E+00
  4.66934E-01  2.98275E+00
  4.68938E-01  2.98871E+00
  4.70942E-01  2.99464E+00
  4.72946E-01  3.00054E+00
  4.74950E-01  3.00640E+00
  4.76954E-01  3.01224E+00
  4.78958E-01  3.01805E+00
  4.80962E-01  3.02382E+00
  4.82966E-01  3.02956E+00
  4.84970E-01  3.03527E+00
  4.86974E-01  3.04096E+00
  4.88978E-01  3.04661E+00
  4.90982E-01  3.05223E+00
  4.92986E-01  3.05782E+00
  4.94990E-01  3.06338E+00
  4.96994E-01  3.06891E+00
  4.98998E-01  3.07442E+00
  5.01002E-01  3.07989E+00
  5.03006E-01  3.08533E+00
  5.05010E-01  3.09075E+00
  5.07014E-01  3.09613E+00
  5.09018E-01  3.10149E+00
  5.11022E-01  3.10682E+00
  5.13026E-01  3.11212E+00
  5.15030E-01  3.11739E+00
  5.17034E-01  3.12263E+00
  5.19038E-01  3.12785E+00
  5.21042E-01  3.13304E+00
  5.23046E-01  3.13820E+00
  5.25050E-01  3.14333E+00
  5.27054E-01  3.14844E+00
  5.29058E-01  3.15351E+00
  5.31062E-01  3.15856E+00
  5.33066E-01  3.16359E+00
  5.35070E-01  3.16858E+00
  5.37074E-01  3.17356E+00
  5.39078E-01  3.17850E+00
  5.41082E-01  3.18342E+00
  5.43086E-01  3.18831E+00
  5.45090E-01  3.19317E+00
  5.47094E-01  3.19801E+00
  5.49098E-01  3.20283E+00
  5.51102E-01  3.20761E+00
  5.53106E-01  3.21238E+00
  5.55110E-01  3.21711E+00
  5.57114E-01  3.22182E+00
  5.59118E-01  3.22651E+00
  5.61122E-01  3.23117E+00
  5.63126E-01  3.23581E+00
  5.65130E-01  3.24042E+00
  5.67134E-01  3.24501E+00
  5.69138E-01  3.24957E+00
  5.71142E-01  3.25411E+00
  5.73146E-01  3.25862E+00
  5.75150E-01  3.26311E+00
  5.77154E-01  3.26758E+00
  5.79158E-01  3.27202E+00
  5.81162E-01  3.27644E+00
  5.83166E-01  3.28083E+00
  5.85170E-01  3.28520E+00
  5.87174E-01  3.28955E+00
  5.89178E-01  3.29388E+00
  5.91182E-01  3.29818E+00
  5.93186E-01  3.30246E+00
  5.95190E-01  3.30671E+00
  5.97194E-01  3.31095E+00
  5.99198E-01  3.31516E+00
  6.01202E-01  3.31935E+00
  6.03206E-01  3.32351E+00
  6.05210E-01  3.32766E+00
  6.07214E-01  3.33178E+00
  6.09218E-01  3.33588E+00
  6.11222E-01  3.33995E+00
  6.13226E-01  3.34401E+00
  6.15230E-01  3.34804E+00
  6.17234E-01  3.35206E+00
  6.19238E-01  3.35605E+00
  6.21242E-01  3.36002E+00
  6.23246E-01  3.36397E+00
  6.25251E-01  3.36790E+00
  6.27255E-01  3.37180E+00
  6.29259E-01  3.37569E+00
  6.31263E-01  3.37955E+00
  6.33267E-01  3.38340E+00
  6.35271E-01  3.38722E+00
  6.37275E-01  3.39103E+00
  6.39279E-01  3.39481E+00
  6.41283E-01  3.39857E+00
  6.43287E-01  3.40232E+00
  6.45291E-01  3.40604E+00
  6.47295E-01  3.40974E+00
  6.49299E-01  3.41343E+00
  6.51303E-01  3.41709E+00
  6.53307E-01  3.42073E+00
  6.55311E-01  3.42436E+00
  6.57315E-01  3.42796E+00
  6.59319E-01  3.43155E+00
  6.61323E-01  3.43512E+00
  6.63327E-01  3.43867E+00
  6.65331E-01  3.44219E+00
  6.67335E-01  3.44570E+00
  6.69339E-01  3.44920E+00
  6.71343E-01  3.45267E+00
  6.73347E-01  3.45612E+00
  6.75351E-01  3.45956E+00
  6.77355E-01  3.46298E+00
  6.79359E-01  3.46638E+00
  6.81363E-01  3.46976E+00
  6.83367E-01  3.47312E+00
  6.85371E-01  3.47647E+00
  6.87375E-01  3.47979E+00
  6.89379E-01  3.48310E+00
  6.91383E-01  3.48640E+00
  6.93387E-01  3.48967E+00
  6.95391E-01  3.49293E+00
  6.97395E-01  3.49617E+00
  6.99399E-01  3.49939E+00
  7.01403E-01  3.50259E+00
  7.03407E-01  3.50578E+00
  7.05411E-01  3.50895E+00
  7.07415E-01  3.51211E+00
  7.09419E-01  3.51524E+00
  7.11423E-01  3.51836E+00
  7.13427E-01  3.52147E+00
  7.15431E-01  3.52456E+00
  7.17435E-01  3.52763E+00
  7.19439E-01  3.53068E+00
  7.21443E-01  3.53372E+00
  7.23447E-01  3.53674E+00
  7.25451E-01  3.53975E+00
  7.27455E-01  3.54274E+00
  7.29459E-01  3.54571E+00
  7.31463E-01  3.54867E+00
  7.33467E-01  3.55161E+00
  7.35471E-01  3.55454E+00
  7.37475E-01  3.55745E+00
  7.39479E-01  3.56034E+00
  7.41483E-01  3.56322E+00
  7.43487E-01  3.56609E+00
  7.45491E-01  3.56894E+00
  7.47495E-01  3.57177E+00
  7.49499E-01  3.57459E+00
  7.51503E-01  3.57739E+00
  7.53507E-01  3.58018E+00
  7.55511E-01  3.58296E+00
  7.57515E-01  3.58572E+00
  7.59519E-01  3.58846E+00
  7.61523E-01  3.59119E+00
  7.63527E-01  3.59390E+00
  7.65531E-01  3.59661E+00
  7.67535E-01  3.59929E+00
  7.69539E-01  3.60196E+00
  7.71543E-01  3.60462E+00
  7.73547E-01  3.60726E+00
  7.75551E-01  3.60989E+00
  7.77555E-01  3.61251E+00
  7.79559E-01  3.61511E+00
  7.81563E-01  3.61770E+00
  7.83567E-01  3.62027E+00
  7.85571E-01  3.62283E+00
  7.87575E-01  3.62538E+00
  7.89579E-01  3.62791E+00
  7.91583E-01  3.63043E+00
  7.93587E-01  3.63294E+00
  7.95591E-01  3.63543E+00
  7.97595E-01  3.63791E+00
  7.99599E-01  3.64037E+00
  8.01603E-01  3.64283E+00
  8.03607E-01  3.64527E+00
  8.05611E-01  3.64769E+00
  8.07615E-01  3.65011E+00
  8.09619E-01  3.65251E+00
  8.11623E-01  3.65490E+00
  8.13627E-01  3.65727E+00
  8.15631E-01  3.65963E+00
  8.17635E-01  3.66198E+00
  8.19639E-01  3.66432E+00
  8.21643E-01  3.66665E+00
  8.23647E-01  3.66896E+00
  8.25651E-01  3.67126E+00
  8.27655E-01  3.67355E+00
  8.29659E-01  3.67582E+00
  8.31663E-01  3.67809E+00
  8.33667E-01  3.68034E+00
  8.35671E-01  3.68258E+00
  8.37675E-01  3.68480E+00
  8.39679E-01  3.68702E+00
  8.41683E-01  3.68922E+00
  8.43687E-01  3.69142E+00
  8.45691E-01  3.69360E+00
  8.47695E-01  3.69577E+00
  8.49699E-01  3.69792E+00
  8.51703E-01  3.70007E+00
  8.53707E-01  3.70220E+00
  8.55711E-01  3.70433E+00
  8.57715E-01  3.70644E+00
  8.59719E-01  3.70854E+00
  8.61723E-01  3.71063E+00
  8.63727E-01  3.71270E+00
  8.65731E-01  3.71477E+00
  8.67736E-01  3.71683E+00
  8.69739E-01  3.71887E+00
  8.71744E-01  3.72090E+00
  8.73748E-01  3.72293E+00
  8.75751E-01  3.72494E+00
  8.77756E-01  3.72694E+00
  8.79760E-01  3.72893E+00
  8.81764E-01  3.73091E+00
  8.83768E-01  3.73288E+00
  8.85772E-01  3.73484E+00
  8.87776E-01  3.73679E+00
  8.89780E-01  3.73873E+00
  8.91784E-01  3.74066E+00
  8.93788E-01  3.74257E+00
  8.95792E-01  3.74448E+00
  8.97796E-01  3.74638E+00
  8.99800E-01  3.74827E+00
  9.01804E-01  3.75014E+00
  9.03808E-01  3.75201E+00
  9.05812E-01  3.75387E+00
  9.07816E-01  3.75571E+00
  9.09820E-01  3.75755E+00
  9.11824E-01  3.75938E+00
  9.13828E-01  3.76120E+00
  9.15832E-01  3.76300E+00
  9.17836E-01  3.76480E+00
  9.19840E-01  3.76659E+00
  9.21844E-01  3.76837E+00
  9.23848E-01  3.77014E+00
  9.25852E-01  3.77190E+00
  9.27856E-01  3.77365E+00
  9.29860E-01  3.77539E+00
  9.31864E-01  3.77712E+00
  9.33868E-01  3.77885E+00
  9.35872E-01  3.78056E+00
  9.37876E-01  3.78227E+00
  9.39880E-01  3.78396E+00
  9.41884E-01  3.78565E+00
  9.43888E-01  3.78733E+00
  9.45892E-01  3.78899E+00
  9.47896E-01  3.79065E+00
  9.49900E-01  3.79230E+00
  9.51904E-01  3.79395E+00
  9.53908E-01  3.79558E+00
  9.55912E-01  3.79720E+00
  9.57916E-01  3.79882E+00
  9.59920E-01  3.80043E+00
  9.61924E-01  3.80203E+00
  9.63928E-01  3.80362E+00
  9.65932E-01  3.80520E+00
  9.67936E-01  3.80677E+00
  9.69940E-01  3.80834E+00
  9.71944E-01  3.80989E+00
  9.73948E-01  3.81144E+00
  9.75952E-01  3.81298E+00
  9.77956E-01  3.81451E+00
  9.79960E-01  3.81604E+00
  9.81964E-01  3.81755E+00
  9.83968E-01  3.81906E+00
  9.85972E-01  3.82056E+00
  9.87976E-01  3.82205E+00
  9.89980E-01  3.82353E+00
  9.91984E-01  3.82501E+00
  9.93988E-01  3.82647E+00
  9.95992E-01  3.82793E+00
  9.97996E-01  3.82939E+00
  1.00000E+00  3.83083E+00
