         pCa             force           
    0.0000000000E+00    0.0000000000E+00
    2.0040099043E-03    2.5032442808E-01
    4.0080198087E-03    4.8261648417E-01
    6.0120201670E-03    6.9888657331E-01
    8.0160303041E-03    9.0085530281E-01
    1.0019999929E-02    1.0899943113E+00
    1.2024000287E-02    1.2675876617E+00
    1.4028100297E-02    1.4347515106E+00
    1.6032099724E-02    1.5924391747E+00
    1.8036099151E-02    1.7415119410E+00
    2.0040100440E-02    1.8827199936E+00
    2.2044099867E-02    2.0167284012E+00
    2.4048099294E-02    2.1441268921E+00
    2.6052100584E-02    2.2654418945E+00
    2.8056100011E-02    2.3811440468E+00
    3.0060099438E-02    2.4916558266E+00
    3.2064098865E-02    2.5973560810E+00
    3.4068100154E-02    2.6985881329E+00
    3.6072101444E-02    2.7956614494E+00
    3.8076199591E-02    2.8888604641E+00
    4.0080200881E-02    2.9784321785E+00
    4.2084198445E-02    3.0646131039E+00
    4.4088199735E-02    3.1476154327E+00
    4.6092201024E-02    3.2276325226E+00
    4.8096198589E-02    3.3048415184E+00
    5.0100199878E-02    3.3794064522E+00
    5.2104201168E-02    3.4514763355E+00
    5.4108198732E-02    3.5211894512E+00
    5.6112200022E-02    3.5886735916E+00
    5.8116201311E-02    3.6540451050E+00
    6.0120198876E-02    3.7174136639E+00
    6.2124200165E-02    3.7788798809E+00
    6.4128302038E-02    3.8385412693E+00
    6.6132299602E-02    3.8964781761E+00
    6.8136297166E-02    3.9527750015E+00
    7.0140302181E-02    4.0075068474E+00
    7.2144299746E-02    4.0607447624E+00
    7.4148297310E-02    4.1125535965E+00
    7.6152302325E-02    4.1629953384E+00
    7.8156299889E-02    4.2121276855E+00
    8.0160297453E-02    4.2600049973E+00
    8.2164302468E-02    4.3066782951E+00
    8.4168300033E-02    4.3521952629E+00
    8.6172297597E-02    4.3966002464E+00
    8.8176399469E-02    4.4399380684E+00
    9.0180397034E-02    4.4822454453E+00
    9.2184402049E-02    4.5235619545E+00
    9.4188399613E-02    4.5639219284E+00
    9.6192397177E-02    4.6033606529E+00
    9.8196402192E-02    4.6419086456E+00
    1.0019999743E-01    4.6795892715E+00
    1.0220400244E-01    4.7164459229E+00
    1.0420800000E-01    4.7524995804E+00
    1.0621199757E-01    4.7877750397E+00
    1.0821600258E-01    4.8222975731E+00
    1.1022000015E-01    4.8560905457E+00
    1.1222399771E-01    4.8891768456E+00
    1.1422800273E-01    4.9215769768E+00
    1.1623200029E-01    4.9533114433E+00
    1.1823599786E-01    4.9844007492E+00
    1.2024000287E-01    5.0148630142E+00
    1.2224400043E-01    5.0447158813E+00
    1.2424799800E-01    5.0739765167E+00
    1.2625299394E-01    5.1026754379E+00
    1.2825700641E-01    5.1308002472E+00
    1.3026100397E-01    5.1583800316E+00
    1.3226500154E-01    5.1854300499E+00
    1.3426899910E-01    5.2119636536E+00
    1.3627299666E-01    5.2379937172E+00
    1.3827699423E-01    5.2635340691E+00
    1.4028100669E-01    5.2885971069E+00
    1.4228500426E-01    5.3131937981E+00
    1.4428900182E-01    5.3373365402E+00
    1.4629299939E-01    5.3610358238E+00
    1.4829699695E-01    5.3843035698E+00
    1.5030099452E-01    5.4071493149E+00
    1.5230500698E-01    5.4295830727E+00
    1.5430900455E-01    5.4516148567E+00
    1.5631300211E-01    5.4732546806E+00
    1.5831699967E-01    5.4945101738E+00
    1.6032099724E-01    5.5153908730E+00
    1.6232499480E-01    5.5359048843E+00
    1.6432900727E-01    5.5560612679E+00
    1.6633300483E-01    5.5758671761E+00
    1.6833700240E-01    5.5953307152E+00
    1.7034099996E-01    5.6144590378E+00
    1.7234499753E-01    5.6332592964E+00
    1.7434899509E-01    5.6517391205E+00
    1.7635299265E-01    5.6699051857E+00
    1.7835700512E-01    5.6877641678E+00
    1.8036100268E-01    5.7053227425E+00
    1.8236500025E-01    5.7225861549E+00
    1.8436899781E-01    5.7395615578E+00
    1.8637299538E-01    5.7562551498E+00
    1.8837699294E-01    5.7726716995E+00
    1.9038100541E-01    5.7888174057E+00
    1.9238500297E-01    5.8046979904E+00
    1.9438900054E-01    5.8203177452E+00
    1.9639299810E-01    5.8356833458E+00
    1.9839699566E-01    5.8507986069E+00
    2.0040099323E-01    5.8656692505E+00
    2.0240500569E-01    5.8803000450E+00
    2.0440900326E-01    5.8946948051E+00
    2.0641300082E-01    5.9088587761E+00
    2.0841699839E-01    5.9227962494E+00
    2.1042099595E-01    5.9365115166E+00
    2.1242499352E-01    5.9500093460E+00
    2.1442900598E-01    5.9632930756E+00
    2.1643300354E-01    5.9763674736E+00
    2.1843700111E-01    5.9892358780E+00
    2.2044099867E-01    6.0019021034E+00
    2.2244499624E-01    6.0143704414E+00
    2.2444899380E-01    6.0266442299E+00
    2.2645300627E-01    6.0387272835E+00
    2.2845700383E-01    6.0506229401E+00
    2.3046100140E-01    6.0623340607E+00
    2.3246499896E-01    6.0738649368E+00
    2.3446899652E-01    6.0852184296E+00
    2.3647299409E-01    6.0963973999E+00
    2.3847700655E-01    6.1074056625E+00
    2.4048100412E-01    6.1182460785E+00
    2.4248500168E-01    6.1289210320E+00
    2.4448899925E-01    6.1394338608E+00
    2.4649299681E-01    6.1497879028E+00
    2.4849699438E-01    6.1599850655E+00
    2.5050100684E-01    6.1700282097E+00
    2.5250500441E-01    6.1799206734E+00
    2.5450900197E-01    6.1896648407E+00
    2.5651299953E-01    6.1992621422E+00
    2.5851699710E-01    6.2087159157E+00
    2.6052099466E-01    6.2180294991E+00
    2.6252499223E-01    6.2272043228E+00
    2.6452898979E-01    6.2362432480E+00
    2.6653298736E-01    6.2451477051E+00
    2.6853701472E-01    6.2539215088E+00
    2.7054101229E-01    6.2625651360E+00
    2.7254500985E-01    6.2710814476E+00
    2.7454900742E-01    6.2794723511E+00
    2.7655300498E-01    6.2877407074E+00
    2.7855700254E-01    6.2958874702E+00
    2.8056100011E-01    6.3039164543E+00
    2.8256499767E-01    6.3118276596E+00
    2.8456899524E-01    6.3196239471E+00
    2.8657299280E-01    6.3273077011E+00
    2.8857699037E-01    6.3348793983E+00
    2.9058098793E-01    6.3423418999E+00
    2.9258498549E-01    6.3496961594E+00
    2.9458901286E-01    6.3569445610E+00
    2.9659301043E-01    6.3640890121E+00
    2.9859700799E-01    6.3711304665E+00
    3.0060100555E-01    6.3780713081E+00
    3.0260500312E-01    6.3849124908E+00
    3.0460900068E-01    6.3916559219E+00
    3.0661299825E-01    6.3983025551E+00
    3.0861699581E-01    6.4048547745E+00
    3.1062099338E-01    6.4113144875E+00
    3.1262499094E-01    6.4176816940E+00
    3.1462898850E-01    6.4239583015E+00
    3.1663298607E-01    6.4301466942E+00
    3.1863701344E-01    6.4362478256E+00
    3.2064101100E-01    6.4422621727E+00
    3.2264500856E-01    6.4481921196E+00
    3.2464900613E-01    6.4540381432E+00
    3.2665300369E-01    6.4598021507E+00
    3.2865700126E-01    6.4654850960E+00
    3.3066099882E-01    6.4710888863E+00
    3.3266499639E-01    6.4766139984E+00
    3.3466899395E-01    6.4820618629E+00
    3.3667299151E-01    6.4874334335E+00
    3.3867698908E-01    6.4927310944E+00
    3.4068098664E-01    6.4979543686E+00
    3.4268501401E-01    6.5031046867E+00
    3.4468901157E-01    6.5081839561E+00
    3.4669300914E-01    6.5131926537E+00
    3.4869700670E-01    6.5181312561E+00
    3.5070100427E-01    6.5230021477E+00
    3.5270500183E-01    6.5278058052E+00
    3.5470899940E-01    6.5325427055E+00
    3.5671299696E-01    6.5372147560E+00
    3.5871699452E-01    6.5418224335E+00
    3.6072099209E-01    6.5463666916E+00
    3.6272498965E-01    6.5508489609E+00
    3.6472898722E-01    6.5552692413E+00
    3.6673301458E-01    6.5596284866E+00
    3.6873701215E-01    6.5639281273E+00
    3.7074100971E-01    6.5681691170E+00
    3.7274500728E-01    6.5723519325E+00
    3.7474998832E-01    6.5764799118E+00
    3.7675398588E-01    6.5805497169E+00
    3.7875801325E-01    6.5845637321E+00
    3.8076201081E-01    6.5885233879E+00
    3.8276600838E-01    6.5924296379E+00
    3.8477000594E-01    6.5962820053E+00
    3.8677400351E-01    6.6000819206E+00
    3.8877800107E-01    6.6038308144E+00
    3.9078199863E-01    6.6075291634E+00
    3.9278599620E-01    6.6111769676E+00
    3.9478999376E-01    6.6147761345E+00
    3.9679399133E-01    6.6183266640E+00
    3.9879798889E-01    6.6218285561E+00
    4.0080198646E-01    6.6252832413E+00
    4.0280601382E-01    6.6286921501E+00
    4.0481001139E-01    6.6320543289E+00
    4.0681400895E-01    6.6353721619E+00
    4.0881800652E-01    6.6386446953E+00
    4.1082200408E-01    6.6418733597E+00
    4.1282600164E-01    6.6450591087E+00
    4.1482999921E-01    6.6482014656E+00
    4.1683399677E-01    6.6513023376E+00
    4.1883799434E-01    6.6543617249E+00
    4.2084199190E-01    6.6573801041E+00
    4.2284598947E-01    6.6603584290E+00
    4.2484998703E-01    6.6632966995E+00
    4.2685401440E-01    6.6661953926E+00
    4.2885801196E-01    6.6690564156E+00
    4.3086200953E-01    6.6718788147E+00
    4.3286600709E-01    6.6746635437E+00
    4.3487000465E-01    6.6774110794E+00
    4.3687400222E-01    6.6801228523E+00
    4.3887799978E-01    6.6827983856E+00
    4.4088199735E-01    6.6854376793E+00
    4.4288599491E-01    6.6880426407E+00
    4.4488999248E-01    6.6906132698E+00
    4.4689399004E-01    6.6931490898E+00
    4.4889798760E-01    6.6956510544E+00
    4.5090198517E-01    6.6981201172E+00
    4.5290601254E-01    6.7005572319E+00
    4.5491001010E-01    6.7029614449E+00
    4.5691400766E-01    6.7053341866E+00
    4.5891800523E-01    6.7076754570E+00
    4.6092200279E-01    6.7099862099E+00
    4.6292600036E-01    6.7122664452E+00
    4.6492999792E-01    6.7145166397E+00
    4.6693399549E-01    6.7167372704E+00
    4.6893799305E-01    6.7189288139E+00
    4.7094199061E-01    6.7210912704E+00
    4.7294598818E-01    6.7232255936E+00
    4.7494998574E-01    6.7253317833E+00
    4.7695401311E-01    6.7274098396E+00
    4.7895801067E-01    6.7294611931E+00
    4.8096200824E-01    6.7314848900E+00
    4.8296600580E-01    6.7334823608E+00
    4.8497000337E-01    6.7354540825E+00
    4.8697400093E-01    6.7373995781E+00
    4.8897799850E-01    6.7393198013E+00
    4.9098199606E-01    6.7412152290E+00
    4.9298599362E-01    6.7430853844E+00
    4.9498999119E-01    6.7449316978E+00
    4.9699398875E-01    6.7467532158E+00
    4.9899798632E-01    6.7485508919E+00
    5.0100201368E-01    6.7503256798E+00
    5.0300598145E-01    6.7520771027E+00
    5.0501000881E-01    6.7538056374E+00
    5.0701397657E-01    6.7555117607E+00
    5.0901800394E-01    6.7571954727E+00
    5.1102197170E-01    6.7588572502E+00
    5.1302599907E-01    6.7604975700E+00
    5.1503002644E-01    6.7621164322E+00
    5.1703399420E-01    6.7637143135E+00
    5.1903802156E-01    6.7652916908E+00
    5.2104198933E-01    6.7668485641E+00
    5.2304601669E-01    6.7683844566E+00
    5.2504998446E-01    6.7699007988E+00
    5.2705401182E-01    6.7713971138E+00
    5.2905797958E-01    6.7728743553E+00
    5.3106200695E-01    6.7743325233E+00
    5.3306597471E-01    6.7757720947E+00
    5.3507000208E-01    6.7771925926E+00
    5.3707402945E-01    6.7785949707E+00
    5.3907799721E-01    6.7799792290E+00
    5.4108202457E-01    6.7813453674E+00
    5.4308599234E-01    6.7826943398E+00
    5.4509001970E-01    6.7840251923E+00
    5.4709398746E-01    6.7853388786E+00
    5.4909801483E-01    6.7866353989E+00
    5.5110198259E-01    6.7879152298E+00
    5.5310600996E-01    6.7891788483E+00
    5.5510997772E-01    6.7904262543E+00
    5.5711400509E-01    6.7916574478E+00
    5.5911797285E-01    6.7928724289E+00
    5.6112200022E-01    6.7940721512E+00
    5.6312602758E-01    6.7952566147E+00
    5.6512999535E-01    6.7964253426E+00
    5.6713402271E-01    6.7975792885E+00
    5.6913799047E-01    6.7987179756E+00
    5.7114201784E-01    6.7998418808E+00
    5.7314598560E-01    6.8009519577E+00
    5.7515001297E-01    6.8020472527E+00
    5.7715398073E-01    6.8031287193E+00
    5.7915800810E-01    6.8041958809E+00
    5.8116197586E-01    6.8052496910E+00
    5.8316600323E-01    6.8062896729E+00
    5.8516997099E-01    6.8073167801E+00
    5.8717399836E-01    6.8083305359E+00
    5.8917802572E-01    6.8093309402E+00
    5.9118199348E-01    6.8103189468E+00
    5.9318602085E-01    6.8112940788E+00
    5.9518998861E-01    6.8122563362E+00
    5.9719401598E-01    6.8132071495E+00
    5.9919798374E-01    6.8141450882E+00
    6.0120201111E-01    6.8150715828E+00
    6.0320597887E-01    6.8159852028E+00
    6.0521000624E-01    6.8168873787E+00
    6.0721397400E-01    6.8177785873E+00
    6.0921800137E-01    6.8186578751E+00
    6.1122202873E-01    6.8195261955E+00
    6.1322599649E-01    6.8203835487E+00
    6.1523002386E-01    6.8212299347E+00
    6.1723399162E-01    6.8220653534E+00
    6.1923801899E-01    6.8228893280E+00
    6.2124198675E-01    6.8237032890E+00
    6.2324601412E-01    6.8245072365E+00
    6.2525099516E-01    6.8253002167E+00
    6.2725502253E-01    6.8260836601E+00
    6.2925899029E-01    6.8268561363E+00
    6.3126301765E-01    6.8276195526E+00
    6.3326698542E-01    6.8283734322E+00
    6.3527101278E-01    6.8291177750E+00
    6.3727498055E-01    6.8298521042E+00
    6.3927900791E-01    6.8305773735E+00
    6.4128297567E-01    6.8312926292E+00
    6.4328700304E-01    6.8319993019E+00
    6.4529097080E-01    6.8326973915E+00
    6.4729499817E-01    6.8333859444E+00
    6.4929902554E-01    6.8340659142E+00
    6.5130299330E-01    6.8347373009E+00
    6.5330702066E-01    6.8354001045E+00
    6.5531098843E-01    6.8360538483E+00
    6.5731501579E-01    6.8366994858E+00
    6.5931898355E-01    6.8373374939E+00
    6.6132301092E-01    6.8379669189E+00
    6.6332697868E-01    6.8385882378E+00
    6.6533100605E-01    6.8392019272E+00
    6.6733497381E-01    6.8398079872E+00
    6.6933900118E-01    6.8404059410E+00
    6.7134302855E-01    6.8409962654E+00
    6.7334699631E-01    6.8415789604E+00
    6.7535102367E-01    6.8421540260E+00
    6.7735499144E-01    6.8427219391E+00
    6.7935901880E-01    6.8432831764E+00
    6.8136298656E-01    6.8438372612E+00
    6.8336701393E-01    6.8443837166E+00
    6.8537098169E-01    6.8449239731E+00
    6.8737500906E-01    6.8454566002E+00
    6.8937897682E-01    6.8459825516E+00
    6.9138300419E-01    6.8465018272E+00
    6.9338697195E-01    6.8470144272E+00
    6.9539099932E-01    6.8475208282E+00
    6.9739502668E-01    6.8480200768E+00
    6.9939899445E-01    6.8485140800E+00
    7.0140302181E-01    6.8490009308E+00
    7.0340698957E-01    6.8494820595E+00
    7.0541101694E-01    6.8499574661E+00
    7.0741498470E-01    6.8504261971E+00
    7.0941901207E-01    6.8508887291E+00
    7.1142297983E-01    6.8513460159E+00
    7.1342700720E-01    6.8517971039E+00
    7.1543097496E-01    6.8522419930E+00
    7.1743500233E-01    6.8526821136E+00
    7.1943902969E-01    6.8531165123E+00
    7.2144299746E-01    6.8535451889E+00
    7.2344702482E-01    6.8539686203E+00
    7.2545099258E-01    6.8543863297E+00
    7.2745501995E-01    6.8547992706E+00
    7.2945898771E-01    6.8552069664E+00
    7.3146301508E-01    6.8556098938E+00
    7.3346698284E-01    6.8560070992E+00
    7.3547101021E-01    6.8563995361E+00
    7.3747497797E-01    6.8567867279E+00
    7.3947900534E-01    6.8571686745E+00
    7.4148297310E-01    6.8575463295E+00
    7.4348700047E-01    6.8579187393E+00
    7.4549102783E-01    6.8582868576E+00
    7.4749499559E-01    6.8586497307E+00
    7.4949902296E-01    6.8590078354E+00
    7.5150299072E-01    6.8593621254E+00
    7.5350701809E-01    6.8597116470E+00
    7.5551098585E-01    6.8600568771E+00
    7.5751501322E-01    6.8603978157E+00
    7.5951898098E-01    6.8607344627E+00
    7.6152300835E-01    6.8610663414E+00
    7.6352697611E-01    6.8613939285E+00
    7.6553100348E-01    6.8617181778E+00
    7.6753497124E-01    6.8620376587E+00
    7.6953899860E-01    6.8623533249E+00
    7.7154302597E-01    6.8626651764E+00
    7.7354699373E-01    6.8629727364E+00
    7.7555102110E-01    6.8632769585E+00
    7.7755498886E-01    6.8635768890E+00
    7.7955901623E-01    6.8638730049E+00
    7.8156298399E-01    6.8641653061E+00
    7.8356701136E-01    6.8644537926E+00
    7.8557097912E-01    6.8647389412E+00
    7.8757500648E-01    6.8650202751E+00
    7.8957897425E-01    6.8652977943E+00
    7.9158300161E-01    6.8655729294E+00
    7.9358702898E-01    6.8658437729E+00
    7.9559099674E-01    6.8661112785E+00
    7.9759502411E-01    6.8663754463E+00
    7.9959899187E-01    6.8666362762E+00
    8.0160301924E-01    6.8668942451E+00
    8.0360698700E-01    6.8671483994E+00
    8.0561101437E-01    6.8673996925E+00
    8.0761498213E-01    6.8676471710E+00
    8.0961900949E-01    6.8678917885E+00
    8.1162297726E-01    6.8681335449E+00
    8.1362700462E-01    6.8683724403E+00
    8.1563097239E-01    6.8686079979E+00
    8.1763499975E-01    6.8688411713E+00
    8.1963902712E-01    6.8690710068E+00
    8.2164299488E-01    6.8692979813E+00
    8.2364702225E-01    6.8695220947E+00
    8.2565099001E-01    6.8697433472E+00
    8.2765501738E-01    6.8699612617E+00
    8.2965898514E-01    6.8701767921E+00
    8.3166301250E-01    6.8703894615E+00
    8.3366698027E-01    6.8705997467E+00
    8.3567100763E-01    6.8708066940E+00
    8.3767497540E-01    6.8710117340E+00
    8.3967900276E-01    6.8712139130E+00
    8.4168297052E-01    6.8714137077E+00
    8.4368699789E-01    6.8716106415E+00
    8.4569102526E-01    6.8718051910E+00
    8.4769499302E-01    6.8719978333E+00
    8.4969902039E-01    6.8721871376E+00
    8.5170298815E-01    6.8723745346E+00
    8.5370701551E-01    6.8725595474E+00
    8.5571098328E-01    6.8727426529E+00
    8.5771501064E-01    6.8729224205E+00
    8.5971897840E-01    6.8731002808E+00
    8.6172300577E-01    6.8732762337E+00
    8.6372697353E-01    6.8734493256E+00
    8.6573100090E-01    6.8736205101E+00
    8.6773598194E-01    6.8737902641E+00
    8.6973899603E-01    6.8739571571E+00
    8.7174397707E-01    6.8741221428E+00
    8.7374800444E-01    6.8742852211E+00
    8.7575101852E-01    6.8744463921E+00
    8.7775599957E-01    6.8746047020E+00
    8.7976002693E-01    6.8747615814E+00
    8.8176399469E-01    6.8749165535E+00
    8.8376802206E-01    6.8750691414E+00
    8.8577198982E-01    6.8752207756E+00
    8.8777601719E-01    6.8753695488E+00
    8.8977998495E-01    6.8755164146E+00
    8.9178401232E-01    6.8756618500E+00
    8.9378798008E-01    6.8758053780E+00
    8.9579200745E-01    6.8759469986E+00
    8.9779597521E-01    6.8760867119E+00
    8.9980000257E-01    6.8762249947E+00
    9.0180397034E-01    6.8763613701E+00
    9.0380799770E-01    6.8764958382E+00
    9.0581202507E-01    6.8766288757E+00
    9.0781599283E-01    6.8767604828E+00
    9.0982002020E-01    6.8768897057E+00
    9.1182398796E-01    6.8770174980E+00
    9.1382801533E-01    6.8771438599E+00
    9.1583198309E-01    6.8772687912E+00
    9.1783601046E-01    6.8773922920E+00
    9.1983997822E-01    6.8775138855E+00
    9.2184400558E-01    6.8776345253E+00
    9.2384797335E-01    6.8777527809E+00
    9.2585200071E-01    6.8778696060E+00
    9.2785602808E-01    6.8779850006E+00
    9.2985999584E-01    6.8780989647E+00
    9.3186402321E-01    6.8782119751E+00
    9.3386799097E-01    6.8783235550E+00
    9.3587201834E-01    6.8784337044E+00
    9.3787598610E-01    6.8785424232E+00
    9.3988001347E-01    6.8786497116E+00
    9.4188398123E-01    6.8787555695E+00
    9.4388800859E-01    6.8788599968E+00
    9.4589197636E-01    6.8789625168E+00
    9.4789600372E-01    6.8790650368E+00
    9.4989997149E-01    6.8791656494E+00
